# frequency [GHz] magnitude phase [rad]
0.000000000000000000e+00 0.000000000000000000e+00 0.000000000000000000e+00
1.000000000000000021e-03 0.000000000000000000e+00 0.000000000000000000e+00
2.000000000000000042e-03 4.631188912671735554e-03 2.967095214268452352e+00
3.000000000000000062e-03 1.019705839247318085e-02 2.827035705667855670e+00
4.000000000000000083e-03 1.788618286511493502e-02 2.692495698402450177e+00
5.000000000000000104e-03 2.753194561183605962e-02 2.562849268063319919e+00
6.000000000000000125e-03 3.906260888147096433e-02 2.437820785266045398e+00
7.000000000000000146e-03 5.238369129357339782e-02 2.318134117082989665e+00
8.000000000000000167e-03 6.716722326299069679e-02 2.197641475385932353e+00
9.000000000000001055e-03 8.339499829562847799e-02 2.079970680138983230e+00
1.000000000000000021e-02 1.007830735509325643e-01 1.963718450334140275e+00
1.099999999999999936e-02 1.193183972046051033e-01 1.849373699049009057e+00
1.200000000000000025e-02 1.385561968577967984e-01 1.736630555292831612e+00
1.300000000000000114e-02 1.586187934886119921e-01 1.625955025308587709e+00
1.400000000000000029e-02 1.792324629576727835e-01 1.516300593071445491e+00
1.499999999999999944e-02 1.999049686677157878e-01 1.408148821134466822e+00
1.600000000000000033e-02 2.216682447182066196e-01 1.300986329191738733e+00
1.700000000000000122e-02 2.430196587661406227e-01 1.197741700971183487e+00
1.800000000000000211e-02 2.645804087596491661e-01 1.093737861747780649e+00
1.899999999999999953e-02 2.860925530665216487e-01 9.912300066366792617e-01
2.000000000000000042e-02 3.074122905707879494e-01 8.907824586613531936e-01
2.100000000000000130e-02 3.285633190750747445e-01 7.921265391602105854e-01
2.199999999999999872e-02 3.490651680717114513e-01 6.933842191042921543e-01
2.299999999999999961e-02 3.695594746678413367e-01 5.986119945720662638e-01
2.400000000000000050e-02 3.897284129901337213e-01 5.026953610916777837e-01
2.500000000000000139e-02 4.093171257203669366e-01 4.093699845468106169e-01
2.600000000000000228e-02 4.286665977488928192e-01 3.162270884738743737e-01
2.699999999999999969e-02 4.476643628596086999e-01 2.259626742834539015e-01
2.800000000000000058e-02 4.658577824376165522e-01 1.343641090885739908e-01
2.900000000000000147e-02 4.839401667837301968e-01 4.534698986706890700e-02
2.999999999999999889e-02 5.014623854506135014e-01 -4.219461730231398311e-02
3.099999999999999978e-02 5.184045515346080713e-01 -1.291467881953583252e-01
3.200000000000000067e-02 5.348004264866383917e-01 -2.158119072381904924e-01
3.300000000000000155e-02 5.510932716918272023e-01 -3.002817631335893966e-01
3.400000000000000244e-02 5.659542595293544087e-01 -3.858707287979285527e-01
3.500000000000000333e-02 5.807757011102491207e-01 -4.689326304265517553e-01
3.600000000000000422e-02 5.953032492787477814e-01 -5.520186305533774096e-01
3.699999999999999817e-02 6.093017177940572848e-01 -6.341853503483029231e-01
3.799999999999999906e-02 6.233728456225950953e-01 -7.155510532728678319e-01
3.899999999999999994e-02 6.356421042947096867e-01 -7.952809949773254061e-01
4.000000000000000083e-02 6.492293787769113367e-01 -8.764483109186448351e-01
4.100000000000000172e-02 6.609093303948456732e-01 -9.541320148116049227e-01
4.200000000000000261e-02 6.728935015327256464e-01 -1.033189016306780061e+00
4.300000000000000350e-02 6.844900955072444892e-01 -1.110984469303498257e+00
4.399999999999999745e-02 6.957470307203378335e-01 -1.188571446364004025e+00
4.499999999999999833e-02 7.062503818232748198e-01 -1.264039518570727383e+00
4.599999999999999922e-02 7.161975698582841998e-01 -1.340988279122059978e+00
4.700000000000000011e-02 7.265828361622459486e-01 -1.415173734208470480e+00
4.800000000000000100e-02 7.356174059819784450e-01 -1.491484423361848055e+00
4.900000000000000189e-02 7.440383094119520369e-01 -1.564026033032920981e+00
5.000000000000000278e-02 7.543974028478157567e-01 -1.639810424014193302e+00
5.100000000000000366e-02 7.617194892811607332e-01 -1.711421739559680688e+00
5.200000000000000455e-02 7.704145836564038063e-01 -1.785462123495985098e+00
5.299999999999999850e-02 7.781221285945817412e-01 -1.857339241596426715e+00
5.399999999999999939e-02 7.845592998414553376e-01 -1.930128609892960423e+00
5.500000000000000028e-02 7.928178623234251043e-01 -2.001289648477780680e+00
5.600000000000000117e-02 7.996204252388204869e-01 -2.073261500319324213e+00
5.700000000000000205e-02 8.058527849705979795e-01 -2.143215767354569756e+00
5.800000000000000294e-02 8.125084209558702808e-01 -2.215246208261849148e+00
5.900000000000000383e-02 8.186755024606683362e-01 -2.284084818105477144e+00
5.999999999999999778e-02 8.240186528872250893e-01 -2.354526068973702646e+00
6.099999999999999867e-02 8.285999035618740738e-01 -2.423753926399192071e+00
6.199999999999999956e-02 8.345186622210911676e-01 -2.493007576872626974e+00
6.300000000000000044e-02 8.387208878362384379e-01 -2.560338305294104444e+00
6.400000000000000133e-02 8.436130956229406230e-01 -2.629014313016452498e+00
6.500000000000000222e-02 8.485826104725152641e-01 -2.696657281046888954e+00
6.600000000000000311e-02 8.535779344454685891e-01 -2.765300153226390556e+00
6.700000000000000400e-02 8.561009622553248377e-01 -2.831780740501248061e+00
6.800000000000000488e-02 8.593092243448923195e-01 -2.898718392254855392e+00
6.900000000000000577e-02 8.636953022941270541e-01 -2.965982838153518042e+00
7.000000000000000666e-02 8.677827026715343450e-01 -3.033013070907494058e+00
7.100000000000000755e-02 8.711155425940297903e-01 -3.098163049289007542e+00
7.200000000000000844e-02 8.737314121040979931e-01 3.118560633685846906e+00
7.299999999999999545e-02 8.765012375155948332e-01 3.052857975101015864e+00
7.399999999999999634e-02 8.792721031733536918e-01 2.989077762613323141e+00
7.499999999999999722e-02 8.809371017853124819e-01 2.923379676601836508e+00
7.599999999999999811e-02 8.845964801516459364e-01 2.857351879319128596e+00
7.699999999999999900e-02 8.861651782906847519e-01 2.793834926576324929e+00
7.799999999999999989e-02 8.892229432012288548e-01 2.729681667078841301e+00
7.900000000000000078e-02 8.902817802673956837e-01 2.665808709839755597e+00
8.000000000000000167e-02 8.924276680333268486e-01 2.601440734335028093e+00
8.100000000000000255e-02 8.944203354662539907e-01 2.538444170729679872e+00
8.200000000000000344e-02 8.963897658807475910e-01 2.474961632127921973e+00
8.300000000000000433e-02 8.966928588274106771e-01 2.411667470894839127e+00
8.400000000000000522e-02 8.991122665417521365e-01 2.348248767187018249e+00
8.500000000000000611e-02 9.013822175340532317e-01 2.286823381039846836e+00
8.600000000000000699e-02 9.021918760539555660e-01 2.224148340716051830e+00
8.700000000000000788e-02 9.039835866574339462e-01 2.162019453058152241e+00
8.799999999999999489e-02 9.056417764267166159e-01 2.099810749659758002e+00
8.899999999999999578e-02 9.066085127842697933e-01 2.037804257302690658e+00
8.999999999999999667e-02 9.072008291731219476e-01 1.975799573847667023e+00
9.099999999999999756e-02 9.083636425580479123e-01 1.915211955682169842e+00
9.199999999999999845e-02 9.108019617784974820e-01 1.853187481646222379e+00
9.299999999999999933e-02 9.111370052419210941e-01 1.792158866994302935e+00
9.400000000000000022e-02 9.124638720011211124e-01 1.729739042955935835e+00
9.500000000000000111e-02 9.131109452455175024e-01 1.669430152914137322e+00
9.600000000000000200e-02 9.149182005686461450e-01 1.608566112258565495e+00
9.700000000000000289e-02 9.157114468149608610e-01 1.548501489500741402e+00
9.800000000000000377e-02 9.164867427444605141e-01 1.486913301818522992e+00
9.900000000000000466e-02 9.177000797701930779e-01 1.427484967619344625e+00
1.000000000000000056e-01 9.186946197647992696e-01 1.365769020670320133e+00
1.010000000000000064e-01 9.207517074754794084e-01 1.306531502169324677e+00
1.020000000000000073e-01 9.203915039370893503e-01 1.244794672975620742e+00
1.030000000000000082e-01 9.209920713267757408e-01 1.186009873128133219e+00
1.040000000000000091e-01 9.229963162463947768e-01 1.125929665181545580e+00
1.049999999999999961e-01 9.248976759794305114e-01 1.065299009927695550e+00
1.059999999999999970e-01 9.255686246036253229e-01 1.004417820860841859e+00
1.069999999999999979e-01 9.260149654615064119e-01 9.454593869701084508e-01
1.079999999999999988e-01 9.277633160580969207e-01 8.857299964998845976e-01
1.089999999999999997e-01 9.283237356350119152e-01 8.264108550073603343e-01
1.100000000000000006e-01 9.292786957537142456e-01 7.661758567140177778e-01
1.110000000000000014e-01 9.306436761667130630e-01 7.071452424426821759e-01
1.120000000000000023e-01 9.312916290669436270e-01 6.466841327620423963e-01
1.130000000000000032e-01 9.316776588571885620e-01 5.881415054016990718e-01
1.140000000000000041e-01 9.340383080319986098e-01 5.269431841983548415e-01
1.150000000000000050e-01 9.347222694781602836e-01 4.684674369772606206e-01
1.160000000000000059e-01 9.352498604453939324e-01 4.089704313815352710e-01
1.170000000000000068e-01 9.370236325317842230e-01 3.494289488526690080e-01
1.180000000000000077e-01 9.383170866075922767e-01 2.902825635385341552e-01
1.190000000000000085e-01 9.392725743801936256e-01 2.320067965095798379e-01
1.199999999999999956e-01 9.399066840808882883e-01 1.721747526939073070e-01
1.209999999999999964e-01 9.417294573195031937e-01 1.145267999151121791e-01
1.219999999999999973e-01 9.422217501509085880e-01 5.375745663695111198e-02
1.229999999999999982e-01 9.428088988710675578e-01 -4.695780485137555221e-03
1.239999999999999991e-01 9.436644202587238794e-01 -6.461792168345557863e-02
1.250000000000000000e-01 9.446567409940211935e-01 -1.226587237545767595e-01
1.260000000000000009e-01 9.467973830328615392e-01 -1.819787196084725611e-01
1.270000000000000018e-01 9.470452943858305161e-01 -2.402415032714464160e-01
1.280000000000000027e-01 9.477978254793313351e-01 -3.005552969142419317e-01
1.290000000000000036e-01 9.480262709413316280e-01 -3.580146801035478665e-01
1.300000000000000044e-01 9.502966206158447449e-01 -4.171821260054759395e-01
1.310000000000000053e-01 9.497974114306120264e-01 -4.752216267337018296e-01
1.320000000000000062e-01 9.508171049324326551e-01 -5.356799687434005142e-01
1.330000000000000071e-01 9.517160066938256113e-01 -5.933513664501357532e-01
1.340000000000000080e-01 9.525470515130809446e-01 -6.518192332651282506e-01
1.350000000000000089e-01 9.535862062493806190e-01 -7.106372063768813252e-01
1.360000000000000098e-01 9.542561168643620695e-01 -7.703037397312459955e-01
1.370000000000000107e-01 9.540056255175558553e-01 -8.285495471698800518e-01
1.380000000000000115e-01 9.551414790430566848e-01 -8.873288107947066017e-01
1.390000000000000124e-01 9.556021658954582110e-01 -9.458785074666490322e-01
1.400000000000000133e-01 9.563365122614151392e-01 -1.005444358502971758e+00
1.410000000000000142e-01 9.556241439916360880e-01 -1.062949112332024715e+00
1.420000000000000151e-01 9.565454931759449497e-01 -1.121057057219095432e+00
1.430000000000000160e-01 9.572652443008834444e-01 -1.179112103322963678e+00
1.440000000000000169e-01 9.564370837570856931e-01 -1.238168823470565005e+00
1.449999999999999900e-01 9.580384912306010303e-01 -1.296538769731735208e+00
1.459999999999999909e-01 9.576916860862447756e-01 -1.355358324061228581e+00
1.469999999999999918e-01 9.564965825978293257e-01 -1.413233234457196286e+00
1.479999999999999927e-01 9.573411267083143938e-01 -1.471599096407751661e+00
1.489999999999999936e-01 9.565388387984266050e-01 -1.528233517025722188e+00
1.499999999999999944e-01 9.569712531803553635e-01 -1.588267856852473292e+00
1.509999999999999953e-01 9.575695410255568030e-01 -1.644471272879030277e+00
1.519999999999999962e-01 9.562996818868328974e-01 -1.703741289386507152e+00
1.529999999999999971e-01 9.551839480126231852e-01 -1.760997722152014111e+00
1.539999999999999980e-01 9.559914786540304465e-01 -1.818621510668363195e+00
1.549999999999999989e-01 9.552404346954395109e-01 -1.875343404194613761e+00
1.559999999999999998e-01 9.541153555388253160e-01 -1.934322365577229474e+00
1.570000000000000007e-01 9.542704958862346931e-01 -1.991185353196162078e+00
1.580000000000000016e-01 9.535861593234775668e-01 -2.049346638085884020e+00
1.590000000000000024e-01 9.528026898278170176e-01 -2.105427378264571381e+00
1.600000000000000033e-01 9.522713256143442440e-01 -2.163475766263025957e+00
1.610000000000000042e-01 9.524005152520405026e-01 -2.219678626237378438e+00
1.620000000000000051e-01 9.515738865223540843e-01 -2.278436261453348433e+00
1.630000000000000060e-01 9.505286644890169612e-01 -2.336229235944690341e+00
1.640000000000000069e-01 9.491540816576538031e-01 -2.392759528543987546e+00
1.650000000000000078e-01 9.492458906453412615e-01 -2.449953552851748206e+00
1.660000000000000087e-01 9.481921139259400499e-01 -2.506864373853258776e+00
1.670000000000000095e-01 9.475934839542119459e-01 -2.562439541218422434e+00
1.680000000000000104e-01 9.470701586916470127e-01 -2.620236457490727311e+00
1.690000000000000113e-01 9.458629332970700521e-01 -2.676471297523598469e+00
1.700000000000000122e-01 9.458098967943450175e-01 -2.734271573950724843e+00
1.710000000000000131e-01 9.453138305752404325e-01 -2.791191124309174487e+00
1.720000000000000140e-01 9.454731983018637154e-01 -2.848239988272694312e+00
1.730000000000000149e-01 9.442595517819558637e-01 -2.903790085295448797e+00
1.740000000000000158e-01 9.436254444549559972e-01 -2.961197835435182668e+00
1.750000000000000167e-01 9.426285226022068642e-01 -3.017566065056016544e+00
1.759999999999999898e-01 9.431745606103421053e-01 -3.075006013358174695e+00
1.769999999999999907e-01 9.424935975510563280e-01 -3.130178861490856779e+00
1.779999999999999916e-01 9.416584231305225039e-01 3.096016967704528611e+00
1.789999999999999925e-01 9.406876905543422041e-01 3.039390456352001113e+00
1.799999999999999933e-01 9.408798165914949996e-01 2.982154262588612603e+00
1.809999999999999942e-01 9.404197759671489854e-01 2.926737070053261558e+00
1.819999999999999951e-01 9.404725389212865716e-01 2.869398001491159089e+00
1.829999999999999960e-01 9.394733367543807168e-01 2.813276057653622431e+00
1.839999999999999969e-01 9.393975260078313294e-01 2.756426265582371027e+00
1.849999999999999978e-01 9.393689123330621893e-01 2.700665403622286576e+00
1.859999999999999987e-01 9.390605905980016210e-01 2.643558988509472574e+00
1.869999999999999996e-01 9.384079188612116651e-01 2.587700673897209480e+00
1.880000000000000004e-01 9.387243059730099315e-01 2.530684137065089878e+00
1.890000000000000013e-01 9.386161866846477464e-01 2.475240168472303992e+00
1.900000000000000022e-01 9.386037650848232383e-01 2.418434549100206166e+00
1.910000000000000031e-01 9.385125981893647218e-01 2.362319843326570190e+00
1.920000000000000040e-01 9.376559121514252970e-01 2.305766244495026651e+00
1.930000000000000049e-01 9.372376918910436672e-01 2.250157301418966416e+00
1.940000000000000058e-01 9.385995261049842053e-01 2.193074770404776608e+00
1.950000000000000067e-01 9.387132871739440887e-01 2.137746810311352608e+00
1.960000000000000075e-01 9.380037579508992973e-01 2.080417561963672668e+00
1.970000000000000084e-01 9.382682641366512089e-01 2.023340063411936729e+00
1.980000000000000093e-01 9.376189869244762054e-01 1.967239465813157118e+00
1.990000000000000102e-01 9.387488932373045936e-01 1.911541709889063689e+00
2.000000000000000111e-01 9.384926035967037228e-01 1.854097533885724625e+00
2.010000000000000120e-01 9.381691486018219894e-01 1.798459546151099264e+00
2.020000000000000129e-01 9.391468805681225662e-01 1.741935628563398675e+00
2.030000000000000138e-01 9.395643445398116356e-01 1.686448901788269783e+00
2.040000000000000147e-01 9.399606311836230521e-01 1.629320659247158964e+00
2.050000000000000155e-01 9.394689500286786954e-01 1.573365625385966249e+00
2.060000000000000164e-01 9.400115536020379192e-01 1.516478891131980200e+00
2.070000000000000173e-01 9.405259197630662094e-01 1.460774024402736293e+00
2.080000000000000182e-01 9.402788290475958544e-01 1.404021147460232433e+00
2.089999999999999913e-01 9.405797127341790631e-01 1.348217323805869006e+00
2.099999999999999922e-01 9.406467809215002251e-01 1.292417614523198255e+00
2.109999999999999931e-01 9.419613038680548778e-01 1.235178272053410131e+00
2.119999999999999940e-01 9.417509313427314677e-01 1.178389937836271883e+00
2.129999999999999949e-01 9.423120544744353344e-01 1.124462349290156427e+00
2.139999999999999958e-01 9.418643506173755009e-01 1.067118991257173244e+00
2.149999999999999967e-01 9.424147422819646458e-01 1.011657282577495653e+00
2.159999999999999976e-01 9.429548237256840659e-01 9.539505285478099283e-01
2.169999999999999984e-01 9.437532488051300072e-01 8.989767246460106387e-01
2.179999999999999993e-01 9.432765672536800317e-01 8.416843736914223495e-01
2.190000000000000002e-01 9.440526297506220965e-01 7.867079585278938803e-01
2.200000000000000011e-01 9.442771172133850310e-01 7.292076236009510382e-01
2.210000000000000020e-01 9.444021931934927228e-01 6.740038747657036700e-01
2.220000000000000029e-01 9.439703102258546474e-01 6.176909564767723015e-01
2.230000000000000038e-01 9.457240835185408701e-01 5.609867777977090020e-01
2.240000000000000047e-01 9.446588645300428855e-01 5.048761967015136243e-01
2.250000000000000056e-01 9.441350491228784891e-01 4.496364601250575910e-01
2.260000000000000064e-01 9.452263813873386100e-01 3.928895394916450123e-01
2.270000000000000073e-01 9.449738590837613028e-01 3.373857405235113349e-01
2.280000000000000082e-01 9.455881889020146813e-01 2.804631621304630174e-01
2.290000000000000091e-01 9.454044344945926603e-01 2.259849320709234333e-01
2.300000000000000100e-01 9.446563123072441170e-01 1.675043625434334271e-01
2.310000000000000109e-01 9.452461353761291152e-01 1.136392881237066332e-01
2.320000000000000118e-01 9.455244015514290279e-01 5.542425861260960596e-02
2.330000000000000127e-01 9.453938527685320503e-01 1.459404251856860537e-03
2.340000000000000135e-01 9.464039251941575026e-01 -5.559518919777351603e-02
2.350000000000000144e-01 9.456197165852128217e-01 -1.103883225513489219e-01
2.360000000000000153e-01 9.461662686265926991e-01 -1.671093187336463171e-01
2.370000000000000162e-01 9.457656475072270252e-01 -2.221846822615258510e-01
2.380000000000000171e-01 9.462105793850209556e-01 -2.793809518556834570e-01
2.390000000000000180e-01 9.462580299057392619e-01 -3.347431621654637923e-01
2.399999999999999911e-01 9.465125975649525403e-01 -3.896872894661170261e-01
2.409999999999999920e-01 9.451862506678407883e-01 -4.452522994388108390e-01
2.419999999999999929e-01 9.452625613297711560e-01 -5.026996955377518450e-01
2.429999999999999938e-01 9.447857510151189686e-01 -5.565672057601972478e-01
2.439999999999999947e-01 9.451914447156932741e-01 -6.131462387023738358e-01
2.449999999999999956e-01 9.454596068870381176e-01 -6.680111097275245324e-01
2.459999999999999964e-01 9.452171016258054115e-01 -7.254638351986121281e-01
2.469999999999999973e-01 9.452748472835360571e-01 -7.790277576498015888e-01
2.479999999999999982e-01 9.446295584437974791e-01 -8.360675159868987683e-01
2.489999999999999991e-01 9.453904147993965612e-01 -8.904804532387955440e-01
2.500000000000000000e-01 9.455003299635837966e-01 -9.474085136965242349e-01
2.510000000000000009e-01 9.455216616553697717e-01 -1.002790682233672293e+00
2.520000000000000018e-01 9.447732458104901587e-01 -1.057921826283770406e+00
2.530000000000000027e-01 9.447656649268699747e-01 -1.112929436796451732e+00
2.540000000000000036e-01 9.450531095053775754e-01 -1.169763998619199441e+00
2.550000000000000044e-01 9.445137849511713313e-01 -1.224229774469721255e+00
2.560000000000000053e-01 9.452856792456625357e-01 -1.280446795595607590e+00
2.570000000000000062e-01 9.434989148601056197e-01 -1.335982386032293245e+00
2.580000000000000071e-01 9.448378911518544587e-01 -1.392271013864844864e+00
2.590000000000000080e-01 9.450519999876725308e-01 -1.447044684853093566e+00
2.600000000000000089e-01 9.451936311766041543e-01 -1.503596594360837591e+00
2.610000000000000098e-01 9.451478093484817489e-01 -1.558823638875997508e+00
2.620000000000000107e-01 9.453621172562548525e-01 -1.615040435677275399e+00
2.630000000000000115e-01 9.448721876584619261e-01 -1.670080485718243857e+00
