Frequency [Hz],Gain,phase [rad]
1000000.0,119.86651855667598,-0.16070199627770906
1499500.0,119.96613012646287,-0.24068706497749487
1998999.9999999998,120.09465264181057,-0.3205223166775557
2498500.0,120.24468480898473,-0.4000944925139812
2998000.0,120.44263589355576,-0.47908059142641074
3497500.0,120.64058697812683,-0.5580666903388404
3997000.0000000005,120.88311003330365,-0.635874029038061
4496500.0,121.12731133717898,-0.7136369844002483
4996000.0,121.38140734365919,-0.790445525128346
5495500.0,121.64162940588508,-0.8666631640894714
5995000.0,121.89658065284834,-0.9423891364438044
6494500.0,122.13739056964627,-1.0167959922153051
6994000.0,122.37820048644421,-1.0912028479868063
7493500.0,122.56525064269559,-1.1637389995724587
7993000.0,122.74796861705327,-1.2361244021458386
8492500.0,122.87384334222023,-1.307244149965908
8992000.0,122.95844225663573,-1.3774448629521474
9491500.0,123.01091129395125,-1.4471064285233186
9991000.0,122.95775163659461,-1.5149955180432366
10490500.0,122.90459197923798,-1.5828846075631546
10990000.0,122.69575078356067,-1.6486306673866178
11489500.0,122.46710355860759,-1.714104087889037
11989000.0,122.1248422041481,-1.7782186445884796
12488500.0,121.68620327637005,-1.8411804925854898
12988000.0,121.20075339914122,-1.9036325342392082
13487500.0,120.52199052527156,-1.9639792523930932
13987000.0,119.84322765140192,-2.024325970546978
14486500.0,118.93965904250652,-2.082343794605113
14986000.0,117.99606016711478,-2.1399469217193112
15485500.0,116.91013858198913,-2.196083647563317
15985000.000000002,115.68345282352291,-2.250770030289417
16484500.000000002,114.41075304004939,-2.3049615796227974
16984000.0,112.8903419717923,-2.3564892495097487
17483500.0,111.3699309035352,-2.4080169193967
17983000.0,109.61013440787838,-2.456707178073372
18482500.0,107.79439016027911,-2.5047342937163353
18982000.0,105.845806559753,-2.550911098361288
19481500.0,103.74405689496864,-2.594954462523623
19981000.0,101.61117326067418,-2.6384457100475966
20480500.0,99.24639750252348,-2.677824680791564
20980000.0,96.88162174437278,-2.717203651535532
21479500.0,94.34510416584637,-2.752245014612688
21979000.0,91.75794334151894,-2.7860073034912696
22478500.0,89.10341044154994,-2.8168158827209457
22978000.0,86.3581645824229,-2.8436474471385593
23477500.0,83.60800974259105,-2.8697831588715874
23977000.0,80.8014629869129,-2.8879252628904326
24476500.0,77.99491623123473,-2.9060673669092782
24976000.0,75.24713086270921,-2.9162192361500603
25475500.0,72.52064223968085,-2.92347522418761
25975000.0,69.90249983527478,-2.925607948517958
26474500.0,67.45533475393326,-2.919655832185198
26974000.0,65.03079647828736,-2.913091777313348
27473500.0,63.12504885538715,-2.8924971076739694
27973000.0,61.21930123248696,-2.8719024380345903
28472500.0,59.8976333861921,-2.8420913641414907
28972000.0,58.8314479170023,-2.8082489422007204
29471500.0,58.14660936316653,-2.771859690626777
29971000.0,58.17123439773821,-2.7307322785541825
30470500.0,58.20000592357892,-2.689611846350454
30970000.0,59.40815803751429,-2.6504766882772817
31469500.000000004,60.616310151449674,-2.6113415302041085
31969000.000000004,62.5305073918444,-2.5788165001953
32468500.000000004,64.81264364180248,-2.5497361848115823
32968000.000000004,67.35299759358506,-2.5249040883591123
33467500.000000004,70.46458556097942,-2.5094699810535817
33967000.0,73.57617352837377,-2.494035873748051
34466500.0,77.21934437967849,-2.4914604865605554
34966000.0,80.88167261259159,-2.4893485067094367
35465500.0,84.72816692137131,-2.4941718949894405
35965000.0,88.68795984270918,-2.503261908287864
36464500.0,92.67101104387328,-2.5147518314813997
36964000.0,96.71599194521619,-2.5326319822141654
37463500.0,100.7609728465591,-2.550512132946932
37963000.0,104.72215292348845,-2.5746006624240065
38462500.0,108.67672667192736,-2.599178621326929
38962000.0,112.49333114761136,-2.6266877567170366
39461500.0,116.21036710461188,-2.656312239205825
39961000.0,119.84227172078973,-2.6868239503780833
40460500.0,123.19663727488262,-2.7202281405631883
40960000.0,126.5510028289755,-2.7536323307482933
41459500.0,129.48806165755548,-2.7895263047003476
41959000.0,132.37282493759892,-2.8257322904170574
42458500.0,134.95380666429907,-2.863036430622244
42958000.0,137.27864785616916,-2.901266505516055
43457500.0,139.4790128426755,-2.9397664920814246
43957000.0,141.17021465029902,-2.9793705377262536
44456500.0,142.8614164579225,-3.0189745833710826
44956000.0,143.96615690941744,-3.0592523911491387
45455500.0,144.9676884465613,-3.0996487715451084
45955000.0,145.6030618855356,-3.1401601757688185
46454500.0,145.87845557638383,3.1024006442080228
46954000.0,146.03673359865712,3.0618342885009957
47453500.0,145.57163011921176,3.0215773542363644
47953000.0,145.1065266397664,2.9813204199717336
48452500.0,144.04903907431432,2.941913577188444
48952000.0,142.85445429820243,2.9027034736046895
49451500.0,141.33889585664645,2.864364893083101
49951000.0,139.45547608208423,2.827025147263265
50450500.0,137.49860299380092,2.7900342789049164
50950000.0,135.0024077669853,2.755605001427672
51449500.0,132.50621254016968,2.7211757239504273
51949000.0,129.62844584901526,2.690033233639819
52448500.0,126.63912010101663,2.6598516927466234
52948000.0,123.51367415567591,2.632213527802039
53447500.0,120.20607087193768,2.607978932661126
53947000.0,116.89253678016131,2.5843953355866174
54446500.0,113.51223561629907,2.568140459075626
54946000.0,110.13193445243682,2.551885582564635
55445500.0,106.94289501552873,2.5430130615035607
55945000.0,103.82264212009413,2.5367955760704426
56444500.0,100.96888462365835,2.5349460159291923
56944000.0,98.53302479660375,2.5399459016183785
57443500.0,96.14751953203175,2.5453737879253517
57943000.0,94.87476277827501,2.5602597456878198
58442500.0,93.60200602451826,2.575145703450288
58942000.0,93.4358805705972,2.593257537860517
59441500.0,93.75038105809796,2.612770417045976
59941000.0,94.7003000767681,2.631030057287288
60440500.0,96.82458848340848,2.6469734832861382
60940000.0,98.9577151996571,2.6628619147070642
61439500.0,102.84789786602273,2.667817424036619
61939000.0,106.73808053238837,2.6727729333661743
62438500.0,111.6416700572329,2.6680631974355036
62938000.00000001,117.06986024599954,2.6583501461650347
63437500.00000001,122.89467033391259,2.6440259859146926
63937000.00000001,129.59077501627064,2.6195721414573643
64436500.0,136.28687969862867,2.5951182970000364
64936000.0,143.99985552276274,2.558183660078799
65435500.0,151.7478414069166,2.520819319456371
65935000.0,160.06862613769187,2.476900072960001
66434500.0,168.7395572601922,2.428973875937462
66934000.0,177.6515642969669,2.378759089160499
67433500.0,187.20065344448102,2.3224963336523796
67933000.0,196.7497425919952,2.26623357814426
68432500.0,207.135611762026,2.204015176012347
68932000.0,217.58598742435868,2.1413376593428586
69431500.0,228.6027777152161,2.0758687597098717
69931000.0,240.02581897943313,2.0083977895285052
70430500.0,251.70217947212427,1.9401174182998402
70930000.0,264.1975339111111,1.869220212329272
71429500.0,276.6928883500978,1.7983230063587048
71929000.0,290.23955201998274,1.7254025575992336
72428500.0,303.9159668150754,1.652232403024659
72928000.0,318.28956980300353,1.578350201450425
73427500.0,333.247476786951,1.503871242915115
73927000.0,348.47438394278964,1.4292894902341067
74426500.0,364.79123490509016,1.3542912328287404
74926000.0,381.1080858673906,1.279292975423375
75425500.0,398.6194845905623,1.204386079144647
75925000.0,416.33863075040733,1.1294950717575072
76424500.0,434.76801783471296,1.054899846679838
76924000.0,453.89148004312074,0.9805936716077116
77423500.0,473.2323215352865,0.9064362161369718
77923000.0,493.71730038616647,0.8330615199475081
78422500.0,514.2022792370466,0.7596868237580445
78922000.0,535.7234332320764,0.6872626974485121
79421500.0,557.482037390869,0.6150564039782742
79921000.0,579.7749078020117,0.5434662015455267
80420500.0,602.6764070059818,0.47257784157946975
80920000.0,625.6960506249707,0.40185957355047036
81419500.0,649.5709623700027,0.33237263086375735
81919000.0,673.4458741150348,0.2628856881770452
82418500.0,697.9181457302199,0.19451337401812047
82918000.0,722.5635707228734,0.1264641510205762
83417500.0,747.4408967626746,0.05903401332967054
83917000.0,772.6266579561462,-0.007572722854273661
84416500.0,797.8364722518485,-0.07406081365901838
84916000.0,823.311740061325,-0.13923951690536618
85415500.0,848.7870078708017,-0.20441822015171482
85915000.0,874.2806373966745,-0.26856246749378504
86414500.0,899.7808197795702,-0.3323375422873347
86914000.0,925.1846694756684,-0.3955747595352192
87413500.0,950.4384079299836,-0.45797385561399534
87913000.0,975.668961009538,-0.5203124901058611
88412500.0,1000.405108639582,-0.5813618403673366
88912000.0,1025.141256269626,-0.6424111906288121
89411500.0,1049.3312496914011,-0.7025326496502406
89911000.0,1073.2857238915597,-0.7622539721913612
90410500.0,1096.8762886934273,-0.8215124135318922
90910000.0,1119.7986962111377,-0.8799209800208077
91409500.0,1142.7128894207094,-0.9383210554990132
91909000.0,1164.3728209645699,-0.9954246189572814
92408500.0,1186.0327525084301,-1.0525281824155504
92908000.0,1206.723833540744,-1.108769776123276
93407500.0,1226.9167220212696,-1.1645681364276343
93907000.0,1246.593991752195,-1.2199537072597875
94406500.0,1265.146424401986,-1.2744387660267786
94906000.0,1283.6988570517774,-1.3289238247937696
95405500.0,1300.5297376877102,-1.3821222744479849
95905000.0,1317.3041083454166,-1.4352784911331324
96404500.0,1332.911386066313,-1.4875942159520121
96904000.0,1347.8097698473136,-1.5393994247941964
97403500.0,1362.1750768296968,-1.590824097321798
97903000.0,1375.1422050465314,-1.6412506814014483
98402500.0,1388.1093332633661,-1.6916772654810985
98902000.0,1399.2706122012996,-1.7407925187776667
99401500.0,1410.2958206876474,-1.7898089635114631
99901000.0,1420.2075476701177,-1.8379825965207475
100400500.0,1429.3255670911008,-1.8855554597495467
100900000.0,1438.0091051876636,-1.9327772970492807
101399500.0,1445.2995589535058,-1.9788736343701314
101899000.0,1452.590012719348,-2.0249699716909806
102398500.0,1458.3602381715132,-2.0697234354275373
102898000.0,1463.9457151364988,-2.114313704030216
103397500.0,1468.689471557239,-2.158069920219185
103897000.0,1472.7320515980014,-2.2011313477919585
104396500.0,1476.5060844595146,-2.24388540694771
104896000.0,1479.2022221812301,-2.2854057502112943
105395500.0,1481.8983599029455,-2.326926093474881
105895000.0,1483.6366819397615,-2.367133284256304
106394500.0,1485.2104057386448,-2.4071148130569227
106894000.0,1486.3381213496189,-2.4463262763699123
107393500.0,1487.0325907237927,-2.4847897086295503
107893000.0,1487.626031434624,-2.5230153575961825
108392500.0,1487.6936210902932,-2.5600033519072887
108892000.0,1487.761210745962,-2.596991346218395
109391500.0,1487.5220545607983,-2.6328314990104835
109891000.0,1487.2132989969502,-2.6684112112491305
110390500.0,1486.8392067761276,-2.7033739724009638
110890000.0,1486.3911314250497,-2.73763813685791
111389500.0,1485.95198064147,-2.7717550847460664
111889000.0,1485.5765378193591,-2.8048211282073363
112388500.0,1485.2010949972482,-2.8378871716686045
112888000.0,1485.0190080290804,-2.8701304711096163
113387500.0,1484.8924859519298,-2.9021373376685164
113887000.0,1484.9299904562417,-2.9337547770945522
114386500.0,1485.1843226612086,-2.9648574305082334
114886000.0,1485.477775044856,-2.9958974306176507
115385500.0,1486.1946049835713,-3.0262593662684885
115885000.0,1486.9114349222866,-3.0566213019193262
116384500.0,1487.9910889067942,-3.086556776859934
116884000.0,1489.1992251440477,-3.116341234707288
117383500.0,1490.5911650846585,3.137225844643418
117883000.0,1492.2677194332744,3.1078650189094703
118382500.0,1493.9627247077676,3.078517510225105
118882000.0,1496.037819055337,3.0494443327621554
119381500.0,1498.1129134029065,3.020371155299204
119881000.0,1500.3906767188232,2.9914215117963754
120380500.0,1502.7552153828738,2.9625247609612484
120880000.0,1505.1732841053315,2.933661541555573
121379500.0,1507.6889931675416,2.9048594844251068
121879000.0,1510.2046627579452,2.8760577857387983
122378500.0,1512.7154427782605,2.84730048932277
122878000.0,1515.2262227985757,2.81854319290674
123377500.0,1517.6263645728,2.7898035208501324
123877000.0,1519.9699950916495,2.76107285087654
124376500.0,1522.2112110703752,2.7323542865476242
124876000.0,1524.2305559296883,2.7036619479180275
125375500.0,1526.249900789002,2.6749696092884325
125875000.0,1527.8170644686918,2.646351395242555
126374500.0,1529.3701084263855,2.6177354957965844
126874000.0,1530.558461142799,2.5892047407432544
127373500.0,1531.5267112802053,2.560725372995917
127873000.0,1532.3081082634367,2.5323052950519984
128372499.99999999,1532.603080489135,2.5040395630616157
128872000.0,1532.8980527148335,2.475773831071232
129371499.99999999,1532.5155838622627,2.4477898980023665
129871000.0,1532.0832442801257,2.419826709937397
130370499.99999999,1531.2151091379885,2.392096500322135
130870000.0,1530.0382466581348,2.3645313378599995
131369499.99999999,1528.688040641724,2.337084587117849
131869000.0,1526.7866166847973,2.310014375736307
132368499.99999999,1524.8851927278708,2.282944164354767
132868000.0,1522.386246553365,2.256399446761034
133367499.99999999,1519.8158120104351,2.229917599956711
133867000.0,1516.9273995254334,2.203804214766388
134366500.0,1513.775702468085,2.1779959144440224
134866000.0,1510.5302900380407,2.1523375440164654
135365500.0,1506.91223354197,2.127275345636399
135865000.0,1503.2941770458992,2.102213147256331
136364500.0,1499.3933474999942,2.0778366311640633
136864000.0,1495.4445061364938,2.053576536537522
137363500.0,1491.4029758749043,2.0297429356466474
137863000.0,1487.2719481676925,2.0063211435128374
138362500.0,1483.136201606663,1.9830380044158091
138862000.0,1478.9761638381365,1.9604686084896454
139361500.0,1474.81612606961,1.9378992125634835
139861000.0,1470.7540465754428,1.9160184495979142
140360500.0,1466.7139724184215,1.8942923810730776
140860000.0,1462.7944222538479,1.8729481233303749
141359500.0,1459.0105256892846,1.852033605808416
141859000.0,1455.2728862132344,1.8312135134282248
142358500.0,1451.8609078090292,1.8110581968449098
142858000.0,1448.4489294048237,1.7909028802615947
143357500.0,1445.3956911348528,1.7712846406696099
143857000.0,1442.4446534304545,1.7518194075774027
144356500.0,1439.7179282529576,1.7326175674133588
144856000.0,1437.285913627596,1.7137617831578216
145355500.0,1434.90076096965,1.6949510681282747
145855000.0,1433.0131080355404,1.6766188205792862
146354500.0,1431.125455101431,1.6582865730302978
146854000.0,1429.6357231777954,1.6402791419566651
147353500.0,1428.28580861293,1.6223858415282444
147853000.0,1427.1337939846644,1.604635104941201
148352500.0,1426.286298826822,1.5871037391443878
148852000.0,1425.4600160019238,1.5695866049926015
149351500.0,1425.0563139458923,1.552352986072917
149851000.0,1424.6526118898607,1.5351193671532326
150350500.0,1424.5076952139625,1.5180612556509367
150850000.0,1424.4727900120724,1.501077753578571
151349500.0,1424.5393093399737,1.484172832540191
151849000.0,1424.7896204794256,1.4674103085197623
152348500.0,1425.0418425575692,1.4506497854761276
152848000.0,1425.4931039868006,1.4340976799626284
153347500.0,1425.9443654160316,1.417545574449131
153847000.0,1426.4774424713073,1.4011373247340821
154346500.0,1427.0520291520183,1.3848020610804874
154846000.0,1427.64518594089,1.3685420889717599
155345500.0,1428.278294823659,1.3524441005652368
155845000.0,1428.911403706428,1.3363461121587137
156344500.0,1429.555341642178,1.3205081752087247
156844000.0,1430.199600459426,1.304677943983418
157343500.0,1430.8338428953123,1.289037594454943
157843000.0,1431.4620787101899,1.2735111131337722
158342500.0,1432.0841252582352,1.2580796523371984
158842000.0,1432.6901796289312,1.2428937109409515
159341500.0,1433.2962339996275,1.2277077695447045
159841000.0,1433.8944212662698,1.2128703801602172
160340500.0,1434.4920429792946,1.1980580476263598
160840000.0,1435.1027842150331,1.1834798443329988
161339500.0,1435.7227622661244,1.1690664800059776
161839000.0,1436.3585909669255,1.1547526509266413
162338500.0,1437.0444101783512,1.1407527407053935
162838000.0,1437.7302293897772,1.1267528304841457
163337500.0,1438.5203541587193,1.113124173766796
163837000.0,1439.3227621835254,1.0995392366928436
164336500.0,1440.2176303224378,1.0861751898657777
164836000.0,1441.1885924603685,1.0729929340995619
165335500.0,1442.2032064661992,1.0598870172913597
165835000.0,1443.389784010964,1.0470818325711506
166334500.0,1444.576361555729,1.0342766478509433
166834000.0,1445.978851420594,1.0217625738754337
167333500.0,1447.4175580217943,1.009297330281996
167833000.0,1448.995795971037,0.9969822222892977
168332500.0,1450.7079539046445,0.9848112120752366
168832000.0,1452.465482130349,0.972680215225028
169331500.0,1454.4540115383786,0.9607529449529744
169831000.0,1456.4425409464077,0.9488256746809207
170330500.0,1458.6432808419502,0.9370560535884781
170830000.0,1460.8912146880655,0.9253214924390076
171329500.0,1463.2443545755725,0.9136555561565562
171829000.0,1465.7151958137358,0.9020663953085751
172328500.0,1468.2073110789202,0.8904905333164614
172828000.0,1470.8471602931781,0.8790070230212561
173327500.0,1473.4870095074364,0.8675235127260489
173827000.0,1476.205896653046,0.8560996659035376
174326500.0,1478.9471051656612,0.844692668842248
174826000.0,1481.6990517368981,0.8333116981333969
175325500.0,1484.4650203662204,0.8219647133654377
175825000.0,1487.2261448175932,0.8106227238052512
176324500.0,1489.9368067752412,0.7993327700380103
176824000.0,1492.647468732889,0.7880428162707712
177323500.0,1495.2593933043997,0.776802785741959
177823000.0,1497.8368947507402,0.765580160108622
178322500.0,1500.3339789755087,0.7543929837875153
178822000.0,1502.7080961070376,0.743260013503337
179321500.0,1505.0693351384948,0.7321330547864419
179821000.0,1507.1822294888677,0.721122024719883
180320500.0,1509.295123839241,0.710110994653324
180820000.0,1511.195021119697,0.6992135319720246
181319500.0,1513.0050199927077,0.6883640020020844
181819000.0,1514.698667733209,0.677587771734411
182318500.0,1516.182850821001,0.6669435014773328
182818000.0,1517.6634144056702,0.6563019834895188
183317500.0,1518.8188808007674,0.6459076693226824
183817000.0,1519.974347195864,0.635513355155848
184316500.0,1520.9225662166202,0.6253134120309949
184816000.0,1521.7663425447743,0.615211422547548
185315500.0,1522.5220776559204,0.6052144098613438
185815000.0,1523.089705865421,0.5954416882599821
186314500.0,1523.6573340749217,0.5856689666586222
186814000.0,1524.006376355964,0.5762444898523876
187313500.0,1524.3492890084492,0.5668297785935336
187813000.0,1524.5912772241152,0.5576508323959932
188312500.0,1524.7731299526663,0.5486123660193295
188812000.0,1524.929828320407,0.5396811376963524
189311500.0,1525.0220139429814,0.5310249400641377
189811000.0,1525.1141995655557,0.5223687424319245
190310500.0,1525.1918360623808,0.5140630551524041
190810000.0,1525.2684517046405,0.5057819617969366
191309500.0,1525.3779902145716,0.49770948867096415
191809000.0,1525.5105649292316,0.48978298758987876
192308500.0,1525.672144943646,0.48193435343891494
192808000.0,1525.9244564122496,0.4743292947677156
193307500.0,1526.1767678808535,0.4667242360965163
193807000.0,1526.5823191281927,0.45936761162789047
194306500.0,1527.005629244054,0.4520397780540049
194806000.0,1527.5420881958178,0.44483531733525844
195305500.0,1528.1711047485621,0.4377317776326781
195805000.0,1528.8451558533295,0.430662020175364
196304500.0,1529.6949798537862,0.42372411710109903
196804000.0,1530.544803854243,0.41678621402683413
197303500.0,1531.5785731099286,0.4099380995529836
197803000.0,1532.6428210426768,0.4031048625368468
198302500.0,1533.8022342662757,0.3962946400752512
198802000.0,1535.0524384348375,0.3895063742864715
199301500.0,1536.3251886940764,0.38271646181197255
199801000.0,1537.711486787631,0.37591825621029834
200300500.0,1539.0977848811856,0.36912005060862413
200800000.0,1540.538781204454,0.3622752321445303
201299500.0,1541.991819489134,0.3554201517342369
201799000.0,1543.4357977823968,0.3485209705949726
