Frequency [Hz],Gain,phase [rad]
1000000.0,-0.03858090873551004,-3.7029683013217505
1499500.0,-0.01988934423570643,-3.451323398796027
1999000.0,-0.004054949156231696,-3.2016821721105497
2498500.0,0.00916996058401566,-2.9548629762093683
2998000.0,0.020025250112358874,-2.711647090300872
3497500.0,0.028742965602342935,-2.4727787178577865
3997000.0,0.03554733427373458,-2.2389649866171766
4496500.0,0.040654764392522275,-2.0108759485804453
4996000.0,0.044273845270916226,-1.789144580013333
5495500.0,0.0466053472673484,-1.5743667814459186
5995000.0,0.047842221786472516,-1.3671013776726202
6494500.0,0.04816960127916396,-1.1678701177521922
6994000.0,0.04776479924251999,-0.977157675007728
7493500.0,0.04679731021985943,-0.7954116470266599
7993000.0,0.04542880980072313,-0.6230425556607568
8492500.0,0.04381315462087333,-0.46042384702612704
8992000.0,0.04209638236229429,-0.3078918915032167
9491500.0,0.040416711753191864,-0.1657459837368096
9991000.0,0.03890454256799375,-0.03424834263602872
10490500.0,0.03768245562734922,0.08637588862566625
10990000.0,0.036865212798129626,0.19593864261047633
11489500.0,0.03655975699342763,0.294288927616265
11989000.0,0.03686521217255799,0.3813128276765556
12488500.0,0.03787288334105683,0.4569335025605388
12988000.0,0.039666256550682566,0.5211111877730601
13487500.0,0.042320998899414874,0.5738431945546325
13987000.0,0.045904958531455264,0.6151639098814257
14486500.0,0.05047816463722733,0.6451447964652774
14986000.0,0.05609282745337596,0.6638943927536816
15485500.0,0.06279333826276787,0.6715583129297973
15985000.0,0.07061626939449211,0.6683192469124442
16484500.0,0.07959037422385849,0.6543969603561037
16984000.0,0.08973658717239882,0.6300482946509187
17483500.0,0.10106802370786766,0.5955671669226974
17983000.0,0.1135899803442402,0.5512845700329057
18482500.0,0.13168700332389804,0.38448053847187325
18982000.0,0.14078881068347437,0.2360247906396199
19481500.0,0.17300016813822205,0.07641351761659018
19981000.0,0.1916152515882193,-0.04246981469960799
20480500.0,0.20684807798791216,-0.13236717035705423
20980000.0,0.23838014140094616,-0.15433235243041313
21479500.0,0.2615104391101257,-0.24634528880547327
21979000.0,0.27394182724380484,-0.3656177372500009
22478500.0,0.293036189007597,-0.5880663717201364
22978000.0,0.30163438548838073,-0.7705927863048
23477500.0,0.3424547696456124,-0.8703126070560957
23977000.0,0.36452618699472444,-0.9255301440510322
24476500.0,0.396202293523021,-0.9493518053680703
24976000.0,0.42762422418749546,-0.9892860414681843
25475500.0,0.4498920933164634,-1.077784716182977
25975000.0,0.4554847489860676,-1.1181410958881313
26474500.0,0.47799593832364584,-1.159871974847625
26974000.0,0.496361845059092,-1.2118067203188376
27473500.0,0.5095782517248794,-1.2764306841914101
27973000.0,0.5355831512457153,-1.3343602419993306
28472500.0,0.564809019322561,-1.4558228268972244
28972000.0,0.5985776418563097,-1.5093341543923853
29471500.0,0.6272785210279141,-1.5704469597669757
29971000.0,0.6524914443633568,-1.6442334995764607
30470500.0,0.6626821082869951,-1.6992342062908854
30970000.0,0.6929223222962196,-1.770936823408124
31469500.0,0.7071388687049159,-1.8485639326880041
31969000.0,0.7082660367939843,-1.9424084710804843
32468500.0,0.7258289551683319,-1.9873386754079512
32968000.0,0.7676652140032677,-2.021485708443338
33467500.0,0.7998498769471456,-2.0833431966722307
33967000.0,0.8003985047234489,-2.1437467270532333
34466500.0,0.7968705298443451,-2.194473236822028
34966000.0,0.8398944749535743,-2.2384383950487927
35465500.0,0.8440419560241719,-2.273141567162988
35965000.0,0.8720576810441893,-2.3100927101183775
36464500.0,0.945636342921818,-2.3366996004800247
36964000.0,0.9995703510625326,-2.3693189190326134
37463500.0,1.0251230404812999,-2.3927848760836463
37963000.0,1.0489420136747256,-2.4213940624946284
38462500.0,1.096776082847608,-2.463990542648828
38962000.0,1.1717695523473273,-2.4963172831769205
39461500.0,1.2562689944120573,-2.5212041679676895
39961000.0,1.346814907092915,-2.556520716391965
40460500.0,1.4804794641114423,-2.6045656393905485
40960000.0,1.5827835343431134,-2.6371538724081587
41459500.0,1.7196940566432817,-2.67534518617386
41959000.0,1.865838320936123,-2.710942951812148
42458500.0,2.0637932859431194,-2.7585394361144107
42958000.0,2.26380411153532,-2.8119592109011853
43457500.0,2.491446511167467,-2.8720572279490115
43957000.0,2.6909281044331235,-2.9269268572449643
44456500.0,2.988945154397416,-2.9951262472053943
44956000.0,3.3258706744927258,-3.06521279117248
45455500.0,3.6565393276542184,-3.1395256786280203
45955000.0,4.012767538020684,-3.220739871180423
46454500.0,4.454021242931656,-3.304259799455562
46954000.0,5.042360016102483,-3.394112128779241
47453500.0,5.508576621779305,-3.4839906320251623
47953000.0,6.029901743881814,-3.5820986251067084
48452500.0,6.667384490280892,-3.6335143368472917
48952000.0,7.535428855205621,-3.701482975620699
49451500.0,8.27500822817475,-3.7924361532681434
49951000.0,8.978071375412412,-3.865652591566391
50450500.0,9.727895464338024,-3.956093123097567
50950000.0,10.61863929118676,-4.036991141253959
51449500.0,11.54418718051269,-4.083538359792424
51949000.0,12.544272843745322,-4.171634081388468
52448500.0,13.770052151643569,-4.269700004636316
52948000.0,14.958404162855748,-4.340964513754483
53447500.0,16.21919395845716,-4.4135711311060275
53947000.0,17.54905141131863,-4.531178304739694
54446500.0,19.064246847177657,-4.6077141970701
54946000.0,20.642206316203136,-4.683344812991941
55445500.0,22.361590495577076,-4.767409804040998
55945000.0,23.996061349343364,-4.856987253341595
56444500.0,25.905008961357783,-4.932238165651171
56944000.0,28.12512000830116,-5.0153919963411795
57443500.0,30.123170974794498,-5.084536588977324
57943000.0,32.31442457612586,-5.154516765624801
58442500.0,34.526659278029456,-5.2112405544426945
58942000.0,37.0107827720514,-5.296893665805938
59441500.0,39.77919724788945,-5.372797044975143
59941000.0,42.295513575967384,-5.452381779238745
60440500.0,45.13502633353742,-5.540579241204128
60940000.0,48.15169636623189,-5.621862258545676
61439500.0,51.38670219289172,-5.699428820654275
61939000.0,54.354449471006376,-5.775296121007575
62438500.0,57.689356421172825,-5.848994098911934
62938000.0,61.422152053706995,-5.921077122570361
63437500.0,65.22083309663688,-5.997848695236687
63937000.0,69.33609039940418,-6.073707079887983
64436500.0,73.59267574267648,-6.145336826682969
64936000.0,78.13990911604412,-6.216361478602752
65435500.0,83.10228300660559,-6.288666469596762
65935000.0,87.40593172067803,-6.360369624420218
66434500.0,92.84271848882699,-6.434465345929988
66934000.0,97.98179987327975,-6.502520171483587
67433500.0,103.75431087522823,-6.575331277378061
67933000.0,109.77422828562648,-6.6463331054275185
68432500.0,115.78600819207762,-6.719846097728422
68932000.0,122.5681074385639,-6.787825358766463
69431500.0,129.80015071446059,-6.857063536497582
69931000.0,137.0021308217366,-6.927217978709224
70430500.0,144.36534350532273,-6.995967399812288
70930000.0,151.9429503308116,-7.064849898642626
71429500.0,159.72756495485254,-7.132707336931547
71929000.0,167.25956637559048,-7.200614388936406
72428500.0,175.24873249351123,-7.26904368042838
72928000.0,184.11419823128685,-7.337755345450925
73427500.0,193.26669058860938,-7.406705672063622
73927000.0,203.31991833035067,-7.4746869218800365
74426500.0,212.84089467088577,-7.542704198349783
74926000.0,222.50441866646617,-7.611582929391717
75425500.0,232.81639300316849,-7.679683200938578
75925000.0,242.9661650755837,-7.749450505337593
76424500.0,253.323767712516,-7.818920029552164
76924000.0,264.21116694551176,-7.888131799669355
77423500.0,275.74244713722186,-7.957247704486088
77923000.0,287.18664977323505,-8.026707005410568
78422500.0,298.34670243164857,-8.096779810815692
78922000.0,310.9344294628474,-8.166976507574951
79421500.0,322.82221266458066,-8.236753809659804
79921000.0,334.73706631851746,-8.30633732890157
80420500.0,346.54527951105206,-8.376369465252067
80920000.0,358.77998600617684,-8.447036435340552
81419500.0,371.12804991492504,-8.515430821682058
81919000.0,383.24671770839905,-8.585125363614273
82418500.0,395.88460396765436,-8.655116376382626
82918000.0,407.9043273731175,-8.72467031806571
83417500.0,420.30093720380154,-8.792259063228645
83917000.0,431.87380550766187,-8.861433395877832
84416500.0,443.4640196727783,-8.930291846422344
84916000.0,455.4663695003206,-8.996460871653875
85415500.0,466.6399882219092,-9.065120488446551
85915000.0,477.26742016617413,-9.13266899832768
86414500.0,488.047081005849,-9.199952520475613
86914000.0,498.3257787009838,-9.26619935614556
87413500.0,508.6234432325267,-9.332325929908627
87913000.0,518.1003974947514,-9.397305261367775
88412500.0,527.4827289711411,-9.463047191584934
88912000.0,535.5794907478277,-9.527743952115443
89411500.0,543.9793105485946,-9.59208841419937
89911000.0,552.9463805985495,-9.65481202172417
90410500.0,561.2562248107374,-9.71660882436815
90910000.0,569.1416769350236,-9.777648342952283
91409500.0,576.1422488268632,-9.838755845616832
91909000.0,583.0656125042699,-9.89794473157876
92408500.0,589.7717507770902,-9.957772763385224
92908000.0,596.7557847998985,-10.017507232414484
93407500.0,603.2289170299352,-10.075655665510705
93907000.0,609.3778722914968,-10.133675504483683
94406500.0,616.2826733327248,-10.190577184934636
94906000.0,622.7104631114461,-10.247659450774371
95405500.0,627.4369082957713,-10.302576753355988
95905000.0,633.1433702840706,-10.35755998899222
96404500.0,639.2537921287015,-10.411412877449298
96904000.0,646.0724967340377,-10.464230247148182
97403500.0,651.3136555340891,-10.515169722250818
97903000.0,656.0248960422896,-10.566274178921189
98402500.0,661.2331425150421,-10.616635380980375
98902000.0,665.4094576533527,-10.664965966721963
99401500.0,670.104290058992,-10.713411824920597
99901000.0,673.9959114781349,-10.76140655809968
100400500.0,678.4904620979696,-10.810162348958931
100900000.0,683.6262997255271,-10.857617484264381
101399500.0,687.8969526095885,-10.905620226837783
101899000.0,692.736867102202,-10.952739828860121
102398500.0,697.5951662233593,-10.998410482078377
102898000.0,701.7110107807126,-11.044714997433074
103397500.0,706.4772599179652,-11.089475126505723
103897000.0,710.6487274365824,-11.133948850404757
104396500.0,714.3437808317959,-11.177884725842208
104896000.0,718.0679176304704,-11.221696182781587
105395500.0,720.6154146094038,-11.266318600903956
105895000.0,723.1792679344437,-11.308159886052259
106394500.0,726.6340140236205,-11.351252137004689
106894000.0,728.5431009886726,-11.393241018655106
107393500.0,731.994157697985,-11.436200116127047
107893000.0,734.8361812531248,-11.478323057115936
108392500.0,737.4668278098533,-11.51932921185738
108892000.0,738.8180757302798,-11.560616670380288
109391500.0,740.5929352171586,-11.60282107173368
109891000.0,742.0547083507556,-11.643749866047852
110390500.0,743.1358945173295,-11.68447577435992
110890000.0,744.7677127251037,-11.721661248970099
111389500.0,747.2607936701093,-11.759053103000419
111889000.0,749.414219247749,-11.797448703372638
112388500.0,751.3208221374908,-11.836624995556798
112888000.0,753.588791366327,-11.876478268659026
113387500.0,755.2367567911588,-11.914390959623768
113887000.0,756.5340454756913,-11.952400666034567
114386500.0,758.2388976868575,-11.991549878696587
114886000.0,759.6272573790255,-12.032237129536396
115385500.0,762.2719788638622,-12.070279547344395
115885000.0,764.0107430080158,-12.105881947245283
116384500.0,767.0330276813926,-12.143760906039038
116884000.0,770.5288509521371,-12.180471554966589
117383500.0,773.8284332450571,-12.21540082554961
117883000.0,777.0410754604512,-12.251012414613866
118382500.0,780.2550208797694,-12.286195947836081
118882000.0,783.0115313287215,-12.319382598996297
119381500.0,786.6093091207521,-12.35429224420428
119881000.0,789.2310593618944,-12.388631667704145
120380500.0,793.516552528087,-12.420347237302398
120880000.0,796.8400750312486,-12.454278877802683
121379500.0,800.9695196862814,-12.486539306282534
121879000.0,803.577654528505,-12.517769445987215
122378500.0,806.4708045671819,-12.54981956877694
122878000.0,808.9608917726205,-12.581673222492821
123377500.0,811.331942471713,-12.613641273635427
123877000.0,812.82651857336,-12.644173350722754
124376500.0,814.5538408566082,-12.67459104872098
124876000.0,816.359685796666,-12.7055676072685
125375500.0,818.1334882314283,-12.73669728897435
125875000.0,819.7333912455181,-12.766633164593252
126374500.0,821.4055026677942,-12.796380004907135
126874000.0,822.6894294226671,-12.827833503269655
127373500.0,825.0418402726548,-12.857638819613976
127873000.0,825.8507837236708,-12.888496589966993
128372500.0,827.5831918832058,-12.919103285186495
128872000.0,830.3122095823034,-12.949789300143772
129371500.0,831.4057181998883,-12.98179251026522
129871000.0,833.5614213735914,-13.010945729702566
130370500.0,837.4834817810283,-13.041162852458095
130870000.0,840.2094818675581,-13.070727844319414
131369500.0,842.5010401490381,-13.098959456486726
131869000.0,842.0748488948619,-13.12611297846197
132368500.0,843.560548015845,-13.155297191195025
132868000.0,845.1022106236924,-13.18305421530032
133367500.0,845.8223609951337,-13.211609345762556
133867000.0,847.6255710513213,-13.240523558362584
134366500.0,848.7426009193424,-13.268746853705373
134866000.0,851.3362454627105,-13.29761906803545
135365500.0,853.1822753791179,-13.32685972832282
135865000.0,855.3974930462416,-13.354730583661215
136364500.0,857.4202591251114,-13.382282394460837
136864000.0,859.8138225922158,-13.411628840925706
137363500.0,862.1150666564653,-13.43784340740475
137863000.0,865.7928398607379,-13.464941029765239
138362500.0,866.8313958856313,-13.492617988481275
138862000.0,869.3287543250191,-13.519292575389347
139361500.0,872.4046028927836,-13.546631316470185
139861000.0,874.1405658001919,-13.57333714769865
140360500.0,876.1234514728282,-13.598047801797446
140860000.0,878.3304365922204,-13.624364263462462
141359500.0,879.6043087461849,-13.649666797745901
141859000.0,882.3883342608597,-13.67731414572199
142358500.0,884.1876279814517,-13.70385812882781
142858000.0,885.7530188322497,-13.729534362333522
143357500.0,887.9364932216375,-13.756522700483341
143857000.0,889.6749642167593,-13.78145983335437
144356500.0,889.5423270822939,-13.805416283211823
144856000.0,890.9949561667836,-13.830075020376258
145355500.0,893.7665263130993,-13.853957824298192
145855000.0,895.5131247561018,-13.877928684401278
146354500.0,897.3498926989207,-13.902940921638637
146854000.0,897.0075215487836,-13.927087412726712
147353500.0,896.9546101136591,-13.952153243232843
147853000.0,896.6886627968435,-13.975934929305641
148352500.0,897.1675148237827,-14.001091530957313
148852000.0,897.2965367821663,-14.027314005995551
149351500.0,897.6273408300631,-14.050528213289695
149851000.0,899.3017994471013,-14.072670978882078
150350500.0,901.178163853583,-14.09738912403618
150850000.0,903.2820613358457,-14.121486616469317
151349500.0,904.0585419821444,-14.144009049263575
151849000.0,904.81858990511,-14.16875034556991
152348500.0,905.1308214722923,-14.193479315226183
152848000.0,906.2529849285373,-14.217582806254697
153347500.0,906.9924062351962,-14.24080416082114
153847000.0,909.964490476556,-14.264530027937477
154346500.0,913.0809748375392,-14.286137270151519
154846000.0,915.6007028859199,-14.310217157769797
155345500.0,917.5381364207726,-14.335687390315451
155845000.0,920.6930389380284,-14.358414438658217
156344500.0,921.9849210335343,-14.38108894263577
156844000.0,925.3505709069997,-14.404175841078798
157343500.0,926.5313461931298,-14.426884914827584
157843000.0,927.4727548694735,-14.449540741719591
158342500.0,928.3347570768536,-14.47432687486588
158842000.0,931.8141286746754,-14.497474783634502
159341500.0,934.6255004302838,-14.520221023823783
159841000.0,936.0089654335915,-14.541870481573149
160340500.0,937.0847537652162,-14.562688728589361
160840000.0,938.3401735827101,-14.585456155063637
161339500.0,940.2799184695454,-14.607924712563218
161839000.0,943.1317131544823,-14.630783707977688
162338500.0,945.0454875075181,-14.654291682056098
162838000.0,948.2388426516161,-14.676491258950636
163337500.0,950.8289572658606,-14.698376791147753
163837000.0,953.192064354525,-14.721704256868954
164336500.0,956.172932397943,-14.742445696730009
164836000.0,958.5833674577715,-14.766241860432658
165335500.0,958.6563093610955,-14.786393452172497
165835000.0,958.7585257403914,-14.80814665731878
166334500.0,958.7461954570699,-14.829126325685893
166834000.0,961.3437106995603,-14.850179014598991
167333500.0,962.0671264923408,-14.87065106852743
167833000.0,963.0819718353565,-14.89182829466141
168332500.0,963.5936669171733,-14.913120875620217
168832000.0,962.8245972553107,-14.936475881038415
169331500.0,963.5860280584876,-14.957821889195843
169831000.0,963.4427222261039,-14.979519161205047
170330500.0,963.5991408548983,-15.000427830567027
170830000.0,964.3081355517858,-15.02095515543732
171329500.0,964.8419554624575,-15.04236162968174
171829000.0,963.8270880968228,-15.062875204404612
172328500.0,963.3624802633037,-15.081954736650506
172828000.0,961.0903913712447,-15.102990201614958
173327500.0,963.5863406144223,-15.122822301984298
173827000.0,963.498822527294,-15.143312916515482
174326500.0,962.9226390193003,-15.162746939790717
174826000.0,961.6200339055563,-15.1812130246887
175325500.0,962.0645770808698,-15.20096437408737
175825000.0,962.8465428350091,-15.221152663364794
176324500.0,962.7834975611694,-15.240726471132751
176824000.0,962.668490546036,-15.26104621220932
177323500.0,964.0261606202582,-15.280420739201608
177823000.0,964.6750548279551,-15.30157405359693
178322500.0,964.5600478205166,-15.320500947754951
178822000.0,964.3076114170963,-15.340300238646202
179321500.0,966.0180144342122,-15.360826431316
179821000.0,969.3171053959841,-15.380763399562515
180320500.0,969.9032221046905,-15.400508580004457
180820000.0,970.5304461592671,-15.421420182583413
181319500.0,971.0237024618368,-15.43854185237687
181819000.0,972.3738171591884,-15.459253735671105
182318500.0,973.4202510289988,-15.477660322269653
182818000.0,975.6638204415098,-15.496301856754291
183317500.0,976.6724507808628,-15.51622248430239
183817000.0,977.5963228748333,-15.535108053646049
184316500.0,977.7275487534055,-15.554813449684596
184816000.0,976.9257499715475,-15.576808723833956
185315500.0,977.1582531585918,-15.596410119887075
185815000.0,977.181566397553,-15.616736751798813
186314500.0,977.8531525232265,-15.638309041533542
186814000.0,978.1028937799069,-15.658294784826696
187313500.0,977.7150734716383,-15.677899431804402
187813000.0,978.5369087952122,-15.698156554246928
188312500.0,980.4604158947243,-15.71736959039775
188812000.0,981.6036416460495,-15.737567195101054
189311500.0,982.3627663408124,-15.758293766800733
189811000.0,984.8686709711471,-15.778177933472332
190310500.0,984.0166095466807,-15.796255218025303
190810000.0,983.646927202937,-15.815703632218092
191309500.0,983.8399506543551,-15.834122322426806
191809000.0,983.6998196914052,-15.852559785279594
192308500.0,984.1205942900339,-15.87196399598876
192808000.0,985.7406569200224,-15.892444093453017
193307500.0,986.5923071285398,-15.910066395153175
193807000.0,985.7301644253216,-15.928805641501626
194306500.0,984.9446778904642,-15.947387441497414
194806000.0,985.3138608601928,-15.965320077748487
195305500.0,985.0585382917362,-15.982975517214971
195805000.0,985.0868310710415,-16.001330169985433
196304500.0,985.5410903737048,-16.019820906164583
196804000.0,986.4792638505228,-16.038449032769606
197303500.0,985.6677382405787,-16.057040945566587
197803000.0,986.3903755100104,-16.07535788522623
198302500.0,984.9577436147683,-16.09469117221009
